( Absorption  1.0 0 201203212242 22.50000000 -156.50000000 -1 0 0 OMS01_00000 P 0035 )
0.000 31.660 31.660 23.866
6.870 31.649 31.654 23.821
10.000 31.860 31.686 23.288
20.000 31.833 31.766 23.244
30.000 31.822 31.787 23.160
50.000 31.789 31.794 23.015
75.000 31.775 31.790 22.760
100.000 31.801 31.790 22.378
125.000 31.905 31.802 21.722
150.000 32.062 31.832 20.738
200.000 32.218 31.909 18.163
250.000 31.765 31.926 15.261
300.000 30.659 31.807 12.517
400.000 28.284 31.223 9.074
500.000 26.240 30.431 6.811
600.000 24.892 29.620 5.561
700.000 24.019 28.882 4.897
800.000 23.430 28.237 4.570
900.000 22.857 27.671 4.250
1000.000 22.333 27.164 3.978
1100.000 21.863 26.703 3.763
1200.000 21.391 26.280 3.533
1300.000 20.959 25.888 3.344
1400.000 20.522 25.520 3.139
1500.000 20.129 25.174 2.982
1750.000 19.180 24.385 2.591
2000.000 18.398 23.686 2.390
2500.000 18.404 22.629 4.480
3000.000 15.855 21.712 2.103
3500.000 14.838 20.803 2.211
4000.000 13.914 19.999 2.392
4500.000 13.064 19.276 2.624
5000.000 12.277 18.615 2.886
5500.000 11.538 18.006 3.139
12000.000 7.587 13.432 8.412
