( Absorption  1.0 0 201203212242 22.50000000 -156.50000000 -1 0 0 OMS01_00000 P 0035 )
0.000 16.165 16.165 23.866
6.870 16.167 16.166 23.821
10.000 16.374 16.199 23.288
20.000 16.368 16.285 23.244
30.000 16.378 16.314 23.160
50.000 16.389 16.342 23.015
75.000 16.431 16.365 22.760
100.000 16.521 16.393 22.378
125.000 16.713 16.438 21.722
150.000 17.017 16.509 20.738
200.000 17.766 16.730 18.163
250.000 18.404 17.001 15.261
300.000 18.704 17.260 12.517
400.000 18.456 17.590 9.074
500.000 17.862 17.703 6.811
600.000 17.312 17.684 5.561
700.000 16.880 17.600 4.897
800.000 16.543 17.489 4.570
900.000 16.209 17.365 4.250
1000.000 15.892 17.234 3.978
1100.000 15.597 17.098 3.763
1200.000 15.299 16.961 3.533
1300.000 15.019 16.822 3.344
1400.000 14.736 16.683 3.139
1500.000 14.473 16.545 2.982
1750.000 13.830 16.203 2.591
2000.000 13.271 15.871 2.390
2500.000 12.878 15.312 4.480
3000.000 11.372 14.781 2.103
3500.000 10.581 14.237 2.211
4000.000 9.856 13.735 2.392
4500.000 9.187 13.267 2.624
5000.000 8.568 12.828 2.886
5500.000 7.992 12.414 3.139
12000.000 4.813 9.158 8.412
