( Absorption  1.0 0 201203212242 22.50000000 -156.50000000 -1 0 0 OMS01_00000 P 0035 )
0.000 42.548 42.548 23.866
6.870 42.519 42.534 23.821
10.000 42.626 42.546 23.288
20.000 42.575 42.573 23.244
30.000 42.532 42.567 23.160
50.000 42.440 42.534 23.015
75.000 42.334 42.485 22.760
100.000 42.238 42.435 22.378
125.000 42.145 42.386 21.722
150.000 41.996 42.334 20.738
200.000 41.226 42.153 18.163
250.000 39.542 41.799 15.261
300.000 37.197 41.228 12.517
400.000 33.349 39.739 9.074
500.000 30.487 38.175 6.811
600.000 28.747 36.749 5.561
700.000 27.673 35.529 4.897
800.000 26.974 34.503 4.570
900.000 26.299 33.629 4.250
1000.000 25.688 32.865 3.978
1100.000 25.146 32.188 3.763
1200.000 24.602 31.579 3.533
1300.000 24.108 31.023 3.344
1400.000 23.611 30.511 3.139
1500.000 23.166 30.037 2.982
1750.000 22.096 28.979 2.591
2000.000 21.226 28.064 2.390
2500.000 21.360 26.710 4.480
3000.000 18.416 25.573 2.103
3500.000 17.296 24.471 2.211
4000.000 16.278 23.510 2.392
4500.000 15.340 22.654 2.624
5000.000 14.469 21.879 2.886
5500.000 13.649 21.168 3.139
12000.000 9.220 15.896 8.412
