( Absorption  1.0 0 201203212242 22.50000000 -156.50000000 -1 0 0 OMS01_00000 P 0035 )
0.000 58.205 58.205 23.866
6.870 58.137 58.171 23.821
10.000 57.953 58.132 23.288
20.000 57.858 58.019 23.244
30.000 57.748 57.947 23.160
50.000 57.534 57.824 23.015
75.000 57.233 57.677 22.760
100.000 56.868 57.521 22.378
125.000 56.337 57.337 21.722
150.000 55.530 57.103 20.738
200.000 52.976 56.391 18.163
250.000 49.268 55.337 15.261
300.000 45.171 53.984 12.517
400.000 39.545 51.077 9.074
500.000 35.841 48.401 6.811
600.000 33.740 46.132 5.561
700.000 32.491 44.273 4.897
800.000 31.696 42.750 4.570
900.000 30.935 41.480 4.250
1000.000 30.250 40.391 3.978
1100.000 29.647 39.442 3.763
1200.000 29.043 38.600 3.533
1300.000 28.498 37.844 3.344
1400.000 27.950 37.157 3.139
1500.000 27.462 36.527 2.982
1750.000 26.292 35.148 2.591
2000.000 25.339 33.982 2.390
2500.000 25.451 32.264 4.480
3000.000 22.248 30.862 2.103
3500.000 20.999 29.542 2.211
4000.000 19.855 28.403 2.392
4500.000 18.795 27.394 2.624
5000.000 17.806 26.485 2.886
5500.000 16.871 25.653 3.139
12000.000 11.554 19.456 8.412
