( Absorption  1.0 0 201203212242 22.50000000 -156.50000000 -1 0 0 OMS01_00000 P 0035 )
0.000 34.382 34.382 23.866
6.870 34.367 34.374 23.821
10.000 34.560 34.402 23.288
20.000 34.528 34.473 23.244
30.000 34.510 34.489 23.160
50.000 34.465 34.488 23.015
75.000 34.431 34.475 22.760
100.000 34.432 34.464 22.378
125.000 34.496 34.464 21.722
150.000 34.591 34.477 20.738
200.000 34.548 34.500 18.163
250.000 33.810 34.436 15.261
300.000 32.401 34.214 12.517
400.000 29.646 33.417 9.074
500.000 27.378 32.436 6.811
600.000 25.919 31.471 5.561
700.000 24.989 30.612 4.897
800.000 24.368 29.870 4.570
900.000 23.766 29.225 4.250
1000.000 23.217 28.652 3.978
1100.000 22.726 28.135 3.763
1200.000 22.233 27.664 3.533
1300.000 21.782 27.229 3.344
1400.000 21.328 26.824 3.139
1500.000 20.920 26.444 2.982
1750.000 19.935 25.584 2.591
2000.000 19.128 24.828 2.390
2500.000 19.177 23.693 4.480
3000.000 16.509 22.718 2.103
3500.000 15.464 21.756 2.211
4000.000 14.515 20.910 2.392
4500.000 13.642 20.151 2.624
5000.000 12.833 19.460 2.886
5500.000 12.073 18.823 3.139
12000.000 8.007 14.065 8.412
