( Absorption  1.0 0 201203212242 22.50000000 -156.50000000 -1 0 0 OMS01_00000 P 0035 )
0.000 140.381 140.381 23.866
6.870 140.052 140.217 23.821
10.000 137.521 139.769 23.288
20.000 137.151 138.553 23.244
30.000 136.599 137.994 23.160
50.000 135.607 137.237 23.015
75.000 134.047 136.434 22.760
100.000 131.947 135.575 22.378
125.000 128.706 134.525 21.722
150.000 124.210 133.180 20.738
200.000 113.943 129.654 18.163
250.000 104.373 125.555 15.261
300.000 97.397 121.444 12.517
400.000 91.601 114.708 9.074
500.000 89.748 109.901 6.811
600.000 89.217 106.498 5.561
700.000 88.871 104.004 4.897
800.000 88.437 102.086 4.570
900.000 88.054 100.548 4.250
1000.000 87.675 99.280 3.978
1100.000 87.274 98.206 3.763
1200.000 86.920 97.281 3.533
1300.000 86.544 96.469 3.344
1400.000 86.214 95.748 3.139
1500.000 85.839 95.100 2.982
1750.000 84.977 93.716 2.591
2000.000 83.891 92.556 2.390
2500.000 78.160 90.250 4.480
3000.000 79.040 88.308 2.103
3500.000 76.317 86.789 2.211
4000.000 73.558 85.308 2.392
4500.000 70.810 83.850 2.624
5000.000 68.115 82.411 2.886
5500.000 65.549 80.995 3.139
12000.000 41.545 66.127 8.412
