( Absorption  1.0 0 201203212242 22.50000000 -156.50000000 -1 0 0 OMS01_00000 P 0035 )
0.000 26.281 26.281 23.866
6.870 26.276 26.278 23.821
10.000 26.507 26.314 23.288
20.000 26.489 26.406 23.244
30.000 26.489 26.434 23.160
50.000 26.477 26.453 23.015
75.000 26.492 26.464 22.760
100.000 26.556 26.479 22.378
125.000 26.718 26.510 21.722
150.000 26.969 26.566 20.738
200.000 27.444 26.726 18.163
250.000 27.486 26.874 15.261
300.000 26.947 26.931 12.517
400.000 25.338 26.734 9.074
500.000 23.768 26.298 6.811
600.000 22.665 25.784 5.561
700.000 21.923 25.286 4.897
800.000 21.406 24.833 4.570
900.000 20.902 24.424 4.250
1000.000 20.436 24.049 3.978
1100.000 20.015 23.701 3.763
1200.000 19.591 23.376 3.533
1300.000 19.201 23.070 3.344
1400.000 18.807 22.780 3.139
1500.000 18.449 22.503 2.982
1750.000 17.582 21.862 2.591
2000.000 16.861 21.282 2.390
2500.000 16.755 20.387 4.480
3000.000 14.492 19.593 2.103
3500.000 13.537 18.796 2.211
4000.000 12.668 18.084 2.392
4500.000 11.869 17.438 2.624
5000.000 11.130 16.844 2.886
5500.000 10.437 16.293 3.139
12000.000 6.715 12.113 8.412
