( Absorption  1.0 0 201203212242 22.50000000 -156.50000000 -1 0 0 OMS01_00000 P 0035 )
0.000 11.679 11.679 23.866
6.870 11.683 11.681 23.821
10.000 11.852 11.708 23.288
20.000 11.850 11.780 23.244
30.000 11.861 11.805 23.160
50.000 11.875 11.830 23.015
75.000 11.915 11.852 22.760
100.000 11.997 11.878 22.378
125.000 12.166 11.918 21.722
150.000 12.436 11.982 20.738
200.000 13.140 12.184 18.163
250.000 13.844 12.445 15.261
300.000 14.342 12.720 12.517
400.000 14.557 13.152 9.074
500.000 14.376 13.415 6.811
600.000 14.093 13.552 5.561
700.000 13.823 13.610 4.897
800.000 13.586 13.622 4.570
900.000 13.348 13.604 4.250
1000.000 13.117 13.567 3.978
1100.000 12.896 13.516 3.763
1200.000 12.674 13.455 3.533
1300.000 12.460 13.387 3.344
1400.000 12.245 13.313 3.139
1500.000 12.041 13.235 2.982
1750.000 11.539 13.029 2.591
2000.000 11.086 12.814 2.390
2500.000 10.558 12.416 4.480
3000.000 9.500 12.018 2.103
3500.000 8.820 11.610 2.211
4000.000 8.194 11.222 2.392
4500.000 7.614 10.853 2.624
5000.000 7.078 10.502 2.886
5500.000 6.580 10.168 3.139
12000.000 3.786 7.468 8.412
