( Absorption  1.0 0 201203212242 22.50000000 -156.50000000 -1 0 0 OMS01_00000 P 0035 )
0.000 21.076 21.076 23.866
6.870 21.076 21.076 23.821
10.000 21.304 21.111 23.288
20.000 21.293 21.205 23.244
30.000 21.300 21.236 23.160
50.000 21.303 21.262 23.015
75.000 21.337 21.281 22.760
100.000 21.422 21.306 22.378
125.000 21.612 21.348 21.722
150.000 21.912 21.417 20.738
200.000 22.587 21.625 18.163
250.000 23.001 21.859 15.261
300.000 22.944 22.045 12.517
400.000 22.065 22.160 9.074
500.000 20.991 22.033 6.811
600.000 20.159 21.790 5.561
700.000 19.565 21.515 4.897
800.000 19.133 21.244 4.570
900.000 18.709 20.986 4.250
1000.000 18.312 20.738 3.978
1100.000 17.949 20.501 3.763
1200.000 17.584 20.273 3.533
1300.000 17.244 20.053 3.344
1400.000 16.901 19.841 3.139
1500.000 16.587 19.634 2.982
1750.000 15.822 19.144 2.591
2000.000 15.174 18.688 2.390
2500.000 14.931 17.961 4.480
3000.000 13.016 17.296 2.103
3500.000 12.135 16.622 2.211
4000.000 11.331 16.011 2.392
4500.000 10.591 15.450 2.624
5000.000 9.906 14.930 2.886
5500.000 9.267 14.444 3.139
12000.000 5.792 10.699 8.412
